# distance  frequency (bands are separated by blank lines)
# End points of segments: 
#   0.00000000 0.08776990 0.13844380 0.23979180 
0.000000  -0.000000 
0.000878  -0.008133 
0.001755  -0.016229 
0.002633  -0.024253 
0.003511  -0.032165 
0.004389  -0.039929 
0.005266  -0.047507 
0.006144  -0.054858 
0.007022  -0.061941 
0.007899  -0.068714 
0.008777  -0.075132 
0.009655  -0.081146 
0.010532  -0.086707 
0.011410  -0.091757 
0.012288  -0.096238 
0.013166  -0.100080 
0.014043  -0.103207 
0.014921  -0.105532 
0.015799  -0.106949 
0.016676  -0.107332 
0.017554  -0.106523 
0.018432  -0.104315 
0.019309  -0.100426 
0.020187  -0.094441 
0.021065  -0.085689 
0.021943  -0.072905 
0.022820  -0.052870 
0.023698  0.016094 
0.024576  0.062371 
0.025453  0.090227 
0.026331  0.114255 
0.027209  0.136649 
0.028086  0.158243 
0.028964  0.179444 
0.029842  0.200486 
0.030720  0.221510 
0.031597  0.242608 
0.032475  0.263842 
0.033353  0.285255 
0.034230  0.306876 
0.035108  0.328726 
0.035986  0.350820 
0.036863  0.373165 
0.037741  0.395769 
0.038619  0.418635 
0.039496  0.441763 
0.040374  0.465153 
0.041252  0.488804 
0.042130  0.512711 
0.043007  0.536873 
0.043885  0.561284 
0.044763  0.585940 
0.045640  0.610835 
0.046518  0.635964 
0.047396  0.661322 
0.048273  0.686901 
0.049151  0.712697 
0.050029  0.738702 
0.050907  0.764911 
0.051784  0.791316 
0.052662  0.817911 
0.053540  0.844690 
0.054417  0.871645 
0.055295  0.898772 
0.056173  0.926062 
0.057050  0.953509 
0.057928  0.981107 
0.058806  1.008850 
0.059684  1.036731 
0.060561  1.064742 
0.061439  1.092880 
0.062317  1.121136 
0.063194  1.149505 
0.064072  1.177980 
0.064950  1.206556 
0.065827  1.235226 
0.066705  1.263985 
0.067583  1.292827 
0.068460  1.321746 
0.069338  1.350736 
0.070216  1.379792 
0.071094  1.408908 
0.071971  1.438078 
0.072849  1.467298 
0.073727  1.496561 
0.074604  1.525863 
0.075482  1.555198 
0.076360  1.584562 
0.077238  1.613949 
0.078115  1.643354 
0.078993  1.672773 
0.079871  1.702200 
0.080748  1.731631 
0.081626  1.761061 
0.082504  1.790486 
0.083381  1.819901 
0.084259  1.849300 
0.085137  1.878681 
0.086014  1.908039 
0.086892  1.937368 
0.087770  1.966666 

0.087770  1.966666 
0.088277  1.966700 
0.088783  1.966800 
0.089290  1.966968 
0.089797  1.967204 
0.090304  1.967506 
0.090810  1.967876 
0.091317  1.968314 
0.091824  1.968819 
0.092330  1.969392 
0.092837  1.970033 
0.093344  1.970742 
0.093851  1.971519 
0.094357  1.972365 
0.094864  1.973279 
0.095371  1.974262 
0.095878  1.975315 
0.096384  1.976436 
0.096891  1.977628 
0.097398  1.978890 
0.097905  1.980221 
0.098411  1.981624 
0.098918  1.983097 
0.099425  1.984642 
0.099932  1.986258 
0.100438  1.987946 
0.100945  1.989707 
0.101452  1.991540 
0.101959  1.993446 
0.102465  1.995426 
0.102972  1.997480 
0.103479  1.999607 
0.103985  2.001810 
0.104492  2.004087 
0.104999  2.006440 
0.105506  2.008868 
0.106012  2.011373 
0.106519  2.013954 
0.107026  2.016613 
0.107533  2.019349 
0.108039  2.022162 
0.108546  2.025054 
0.109053  2.028024 
0.109560  2.031074 
0.110066  2.034202 
0.110573  2.037410 
0.111080  2.040699 
0.111587  2.044067 
0.112093  2.047517 
0.112600  2.051047 
0.113107  2.054659 
0.113614  2.058352 
0.114120  2.062128 
0.114627  2.065985 
0.115134  2.069925 
0.115641  2.073948 
0.116147  2.078054 
0.116654  2.082243 
0.117161  2.086516 
0.117667  2.090872 
0.118174  2.095311 
0.118681  2.099835 
0.119188  2.104442 
0.119694  2.109134 
0.120201  2.113910 
0.120708  2.118771 
0.121215  2.123715 
0.121721  2.128744 
0.122228  2.133858 
0.122735  2.139055 
0.123242  2.144338 
0.123748  2.149704 
0.124255  2.155155 
0.124762  2.160690 
0.125269  2.166309 
0.125775  2.172011 
0.126282  2.177798 
0.126789  2.183668 
0.127296  2.189621 
0.127802  2.195657 
0.128309  2.201777 
0.128816  2.207979 
0.129323  2.214263 
0.129829  2.220629 
0.130336  2.227077 
0.130843  2.233606 
0.131350  2.240216 
0.131856  2.246906 
0.132363  2.253677 
0.132870  2.260527 
0.133376  2.267457 
0.133883  2.274465 
0.134390  2.281551 
0.134897  2.288715 
0.135403  2.295956 
0.135910  2.303274 
0.136417  2.310667 
0.136924  2.318136 
0.137430  2.325680 
0.137937  2.333298 
0.138444  2.340989 

0.138444  2.340989 
0.139457  2.310008 
0.140471  2.278890 
0.141484  2.247640 
0.142498  2.216263 
0.143511  2.184765 
0.144525  2.153152 
0.145538  2.121428 
0.146552  2.089600 
0.147565  2.057673 
0.148579  2.025653 
0.149592  1.993545 
0.150606  1.961355 
0.151619  1.929090 
0.152633  1.896756 
0.153646  1.864358 
0.154660  1.831903 
0.155673  1.799398 
0.156687  1.766848 
0.157700  1.734261 
0.158713  1.701643 
0.159727  1.669001 
0.160740  1.636341 
0.161754  1.603672 
0.162767  1.571000 
0.163781  1.538332 
0.164794  1.505677 
0.165808  1.473040 
0.166821  1.440431 
0.167835  1.407857 
0.168848  1.375326 
0.169862  1.342845 
0.170875  1.310425 
0.171889  1.278072 
0.172902  1.245795 
0.173916  1.213603 
0.174929  1.181505 
0.175943  1.149509 
0.176956  1.117626 
0.177970  1.085863 
0.178983  1.054231 
0.179997  1.022739 
0.181010  0.991396 
0.182024  0.960213 
0.183037  0.929198 
0.184050  0.898363 
0.185064  0.867717 
0.186077  0.837269 
0.187091  0.807032 
0.188104  0.777013 
0.189118  0.747225 
0.190131  0.717676 
0.191145  0.688377 
0.192158  0.659338 
0.193172  0.630568 
0.194185  0.602078 
0.195199  0.573876 
0.196212  0.545971 
0.197226  0.518370 
0.198239  0.491083 
0.199253  0.464113 
0.200266  0.437467 
0.201280  0.411148 
0.202293  0.385157 
0.203307  0.359491 
0.204320  0.334145 
0.205334  0.309106 
0.206347  0.284357 
0.207360  0.259866 
0.208374  0.235587 
0.209387  0.211450 
0.210401  0.187345 
0.211414  0.163095 
0.212428  0.138394 
0.213441  0.112668 
0.214455  0.084610 
0.215468  0.049834 
0.216482  -0.037364 
0.217495  -0.067406 
0.218509  -0.083798 
0.219522  -0.094310 
0.220536  -0.101104 
0.221549  -0.105192 
0.222563  -0.107162 
0.223576  -0.107400 
0.224590  -0.106181 
0.225603  -0.103712 
0.226616  -0.100159 
0.227630  -0.095657 
0.228643  -0.090323 
0.229657  -0.084256 
0.230671  -0.077547 
0.231684  -0.070275 
0.232697  -0.062515 
0.233711  -0.054338 
0.234724  -0.045808 
0.235738  -0.036989 
0.236751  -0.027940 
0.237765  -0.018721 
0.238778  -0.009389 
0.239792  -0.000000 


0.000000  -0.000000 
0.000878  0.028045 
0.001755  0.056088 
0.002633  0.084123 
0.003511  0.112149 
0.004389  0.140162 
0.005266  0.168159 
0.006144  0.196136 
0.007022  0.224090 
0.007899  0.252018 
0.008777  0.279917 
0.009655  0.307784 
0.010532  0.335616 
0.011410  0.363409 
0.012288  0.391160 
0.013166  0.418867 
0.014043  0.446527 
0.014921  0.474136 
0.015799  0.501691 
0.016676  0.529190 
0.017554  0.556630 
0.018432  0.584008 
0.019309  0.611322 
0.020187  0.638568 
0.021065  0.665744 
0.021943  0.692847 
0.022820  0.719876 
0.023698  0.746827 
0.024576  0.773698 
0.025453  0.800486 
0.026331  0.827190 
0.027209  0.853806 
0.028086  0.880334 
0.028964  0.906770 
0.029842  0.933112 
0.030720  0.959359 
0.031597  0.985509 
0.032475  1.011559 
0.033353  1.037508 
0.034230  1.063354 
0.035108  1.089095 
0.035986  1.114729 
0.036863  1.140255 
0.037741  1.165671 
0.038619  1.190975 
0.039496  1.216167 
0.040374  1.241244 
0.041252  1.266205 
0.042130  1.291049 
0.043007  1.315774 
0.043885  1.340380 
0.044763  1.364864 
0.045640  1.389226 
0.046518  1.413464 
0.047396  1.437577 
0.048273  1.461565 
0.049151  1.485426 
0.050029  1.509158 
0.050907  1.532762 
0.051784  1.556236 
0.052662  1.579578 
0.053540  1.602788 
0.054417  1.625866 
0.055295  1.648809 
0.056173  1.671618 
0.057050  1.694290 
0.057928  1.716826 
0.058806  1.739224 
0.059684  1.761484 
0.060561  1.783604 
0.061439  1.805584 
0.062317  1.827422 
0.063194  1.849118 
0.064072  1.870672 
0.064950  1.892081 
0.065827  1.913345 
0.066705  1.934464 
0.067583  1.955435 
0.068460  1.976259 
0.069338  1.996934 
0.070216  2.017459 
0.071094  2.037834 
0.071971  2.058057 
0.072849  2.078128 
0.073727  2.098044 
0.074604  2.117806 
0.075482  2.137412 
0.076360  2.156861 
0.077238  2.176152 
0.078115  2.195284 
0.078993  2.214256 
0.079871  2.228223 
0.080748  2.199398 
0.081626  2.170504 
0.082504  2.141546 
0.083381  2.112528 
0.084259  2.083453 
0.085137  2.054325 
0.086014  2.025148 
0.086892  1.995927 
0.087770  1.966666 

0.087770  1.966666 
0.088277  1.966700 
0.088783  1.966800 
0.089290  1.966968 
0.089797  1.967204 
0.090304  1.967506 
0.090810  1.967876 
0.091317  1.968314 
0.091824  1.968819 
0.092330  1.969392 
0.092837  1.970033 
0.093344  1.970742 
0.093851  1.971519 
0.094357  1.972365 
0.094864  1.973279 
0.095371  1.974262 
0.095878  1.975315 
0.096384  1.976437 
0.096891  1.977628 
0.097398  1.978890 
0.097905  1.980222 
0.098411  1.981624 
0.098918  1.983098 
0.099425  1.984642 
0.099932  1.986258 
0.100438  1.987947 
0.100945  1.989707 
0.101452  1.991540 
0.101959  1.993447 
0.102465  1.995426 
0.102972  1.997480 
0.103479  1.999608 
0.103985  2.001810 
0.104492  2.004087 
0.104999  2.006440 
0.105506  2.008869 
0.106012  2.011374 
0.106519  2.013955 
0.107026  2.016613 
0.107533  2.019349 
0.108039  2.022163 
0.108546  2.025054 
0.109053  2.028025 
0.109560  2.031074 
0.110066  2.034203 
0.110573  2.037411 
0.111080  2.040699 
0.111587  2.044068 
0.112093  2.047517 
0.112600  2.051048 
0.113107  2.054659 
0.113614  2.058353 
0.114120  2.062128 
0.114627  2.065986 
0.115134  2.069926 
0.115641  2.073949 
0.116147  2.078055 
0.116654  2.082244 
0.117161  2.086516 
0.117667  2.090872 
0.118174  2.095312 
0.118681  2.099835 
0.119188  2.104443 
0.119694  2.109135 
0.120201  2.113911 
0.120708  2.118771 
0.121215  2.123716 
0.121721  2.128745 
0.122228  2.133858 
0.122735  2.139056 
0.123242  2.144338 
0.123748  2.149705 
0.124255  2.155155 
0.124762  2.160690 
0.125269  2.166309 
0.125775  2.172012 
0.126282  2.177798 
0.126789  2.183668 
0.127296  2.189622 
0.127802  2.195658 
0.128309  2.201778 
0.128816  2.207979 
0.129323  2.214264 
0.129829  2.220630 
0.130336  2.227078 
0.130843  2.233607 
0.131350  2.240217 
0.131856  2.246907 
0.132363  2.253678 
0.132870  2.260528 
0.133376  2.267457 
0.133883  2.274465 
0.134390  2.281552 
0.134897  2.288716 
0.135403  2.295957 
0.135910  2.303274 
0.136417  2.310668 
0.136924  2.318137 
0.137430  2.325681 
0.137937  2.333299 
0.138444  2.340990 

0.138444  2.340990 
0.139457  2.356590 
0.140471  2.372476 
0.141484  2.388642 
0.142498  2.405082 
0.143511  2.421789 
0.144525  2.438757 
0.145538  2.455980 
0.146552  2.473450 
0.147565  2.491161 
0.148579  2.509104 
0.149592  2.527274 
0.150606  2.545662 
0.151619  2.564260 
0.152633  2.583061 
0.153646  2.594332 
0.154660  2.567211 
0.155673  2.539976 
0.156687  2.512627 
0.157700  2.485166 
0.158713  2.457594 
0.159727  2.429913 
0.160740  2.402123 
0.161754  2.374227 
0.162767  2.346224 
0.163781  2.318117 
0.164794  2.289907 
0.165808  2.261594 
0.166821  2.233181 
0.167835  2.204667 
0.168848  2.176056 
0.169862  2.147346 
0.170875  2.118541 
0.171889  2.089640 
0.172902  2.060646 
0.173916  2.031558 
0.174929  2.002379 
0.175943  1.973109 
0.176956  1.943749 
0.177970  1.914302 
0.178983  1.884767 
0.179997  1.855146 
0.181010  1.825439 
0.182024  1.795649 
0.183037  1.765777 
0.184050  1.735822 
0.185064  1.705787 
0.186077  1.675673 
0.187091  1.645480 
0.188104  1.615211 
0.189118  1.584865 
0.190131  1.554445 
0.191145  1.523951 
0.192158  1.493385 
0.193172  1.462747 
0.194185  1.432040 
0.195199  1.401264 
0.196212  1.370420 
0.197226  1.339510 
0.198239  1.308535 
0.199253  1.277496 
0.200266  1.246395 
0.201280  1.215232 
0.202293  1.184009 
0.203307  1.152728 
0.204320  1.121390 
0.205334  1.089995 
0.206347  1.058547 
0.207360  1.027045 
0.208374  0.995491 
0.209387  0.963887 
0.210401  0.932234 
0.211414  0.900534 
0.212428  0.868787 
0.213441  0.836997 
0.214455  0.805163 
0.215468  0.773288 
0.216482  0.741372 
0.217495  0.709419 
0.218509  0.677428 
0.219522  0.645403 
0.220536  0.613343 
0.221549  0.581252 
0.222563  0.549130 
0.223576  0.516979 
0.224590  0.484801 
0.225603  0.452597 
0.226616  0.420369 
0.227630  0.388119 
0.228643  0.355849 
0.229657  0.323559 
0.230671  0.291252 
0.231684  0.258930 
0.232697  0.226594 
0.233711  0.194246 
0.234724  0.161888 
0.235738  0.129521 
0.236751  0.097146 
0.237765  0.064767 
0.238778  0.032384 
0.239792  0.000000 


0.000000  0.000000 
0.000878  0.044449 
0.001755  0.088895 
0.002633  0.133333 
0.003511  0.177759 
0.004389  0.222170 
0.005266  0.266561 
0.006144  0.310929 
0.007022  0.355270 
0.007899  0.399581 
0.008777  0.443856 
0.009655  0.488093 
0.010532  0.532287 
0.011410  0.576435 
0.012288  0.620533 
0.013166  0.664577 
0.014043  0.708563 
0.014921  0.752488 
0.015799  0.796347 
0.016676  0.840137 
0.017554  0.883854 
0.018432  0.927495 
0.019309  0.971055 
0.020187  1.014530 
0.021065  1.057918 
0.021943  1.101214 
0.022820  1.144414 
0.023698  1.187515 
0.024576  1.230514 
0.025453  1.273405 
0.026331  1.316187 
0.027209  1.358854 
0.028086  1.401404 
0.028964  1.443833 
0.029842  1.486137 
0.030720  1.528312 
0.031597  1.570355 
0.032475  1.612262 
0.033353  1.654029 
0.034230  1.695654 
0.035108  1.737132 
0.035986  1.778460 
0.036863  1.819634 
0.037741  1.860651 
0.038619  1.901507 
0.039496  1.942198 
0.040374  1.982722 
0.041252  2.023074 
0.042130  2.063251 
0.043007  2.103249 
0.043885  2.143065 
0.044763  2.182696 
0.045640  2.222137 
0.046518  2.261385 
0.047396  2.300438 
0.048273  2.339290 
0.049151  2.377940 
0.050029  2.416382 
0.050907  2.454614 
0.051784  2.492632 
0.052662  2.530433 
0.053540  2.568013 
0.054417  2.605368 
0.055295  2.642495 
0.056173  2.679391 
0.057050  2.716051 
0.057928  2.752472 
0.058806  2.788651 
0.059684  2.824583 
0.060561  2.837460 
0.061439  2.811090 
0.062317  2.784568 
0.063194  2.757899 
0.064072  2.731086 
0.064950  2.704134 
0.065827  2.677046 
0.066705  2.649826 
0.067583  2.622478 
0.068460  2.595005 
0.069338  2.567412 
0.070216  2.539701 
0.071094  2.511877 
0.071971  2.483944 
0.072849  2.455905 
0.073727  2.427763 
0.074604  2.399523 
0.075482  2.371188 
0.076360  2.342762 
0.077238  2.314249 
0.078115  2.285652 
0.078993  2.256975 
0.079871  2.233066 
0.080748  2.251714 
0.081626  2.270199 
0.082504  2.288518 
0.083381  2.306672 
0.084259  2.324658 
0.085137  2.342476 
0.086014  2.360124 
0.086892  2.377601 
0.087770  2.394907 

0.087770  2.394907 
0.088277  2.395002 
0.088783  2.395288 
0.089290  2.395765 
0.089797  2.396431 
0.090304  2.397288 
0.090810  2.398334 
0.091317  2.399569 
0.091824  2.400991 
0.092330  2.402601 
0.092837  2.404397 
0.093344  2.406378 
0.093851  2.408543 
0.094357  2.410890 
0.094864  2.413419 
0.095371  2.416128 
0.095878  2.419014 
0.096384  2.422077 
0.096891  2.425315 
0.097398  2.428725 
0.097905  2.432306 
0.098411  2.436056 
0.098918  2.439972 
0.099425  2.444053 
0.099932  2.448295 
0.100438  2.452697 
0.100945  2.457255 
0.101452  2.461968 
0.101959  2.466833 
0.102465  2.471846 
0.102972  2.477005 
0.103479  2.482307 
0.103985  2.487750 
0.104492  2.493329 
0.104999  2.499043 
0.105506  2.504887 
0.106012  2.510859 
0.106519  2.516955 
0.107026  2.523172 
0.107533  2.529506 
0.108039  2.535955 
0.108546  2.542514 
0.109053  2.549180 
0.109560  2.555949 
0.110066  2.562818 
0.110573  2.569783 
0.111080  2.576841 
0.111587  2.583987 
0.112093  2.591217 
0.112600  2.598529 
0.113107  2.605917 
0.113614  2.613379 
0.114120  2.620910 
0.114627  2.628506 
0.115134  2.636164 
0.115641  2.643879 
0.116147  2.651647 
0.116654  2.659464 
0.117161  2.667327 
0.117667  2.675231 
0.118174  2.683172 
0.118681  2.691146 
0.119188  2.699149 
0.119694  2.707177 
0.120201  2.715226 
0.120708  2.723291 
0.121215  2.731369 
0.121721  2.739456 
0.122228  2.747547 
0.122735  2.755638 
0.123242  2.763726 
0.123748  2.771796 
0.124255  2.757598 
0.124762  2.743347 
0.125269  2.729045 
0.125775  2.714691 
0.126282  2.700288 
0.126789  2.685835 
0.127296  2.671332 
0.127802  2.656781 
0.128309  2.642181 
0.128816  2.627535 
0.129323  2.612841 
0.129829  2.598100 
0.130336  2.583314 
0.130843  2.568483 
0.131350  2.553607 
0.131856  2.538687 
0.132363  2.523724 
0.132870  2.508717 
0.133376  2.493669 
0.133883  2.478578 
0.134390  2.463447 
0.134897  2.448275 
0.135403  2.433063 
0.135910  2.417812 
0.136417  2.402523 
0.136924  2.387195 
0.137430  2.371830 
0.137937  2.356428 
0.138444  2.340990 

0.138444  2.340990 
0.139457  2.356591 
0.140471  2.372477 
0.141484  2.388643 
0.142498  2.405083 
0.143511  2.421790 
0.144525  2.438758 
0.145538  2.455981 
0.146552  2.473451 
0.147565  2.491162 
0.148579  2.509106 
0.149592  2.527275 
0.150606  2.545663 
0.151619  2.564261 
0.152633  2.583062 
0.153646  2.602057 
0.154660  2.621240 
0.155673  2.640602 
0.156687  2.660134 
0.157700  2.679829 
0.158713  2.699678 
0.159727  2.719673 
0.160740  2.739806 
0.161754  2.760068 
0.162767  2.780450 
0.163781  2.800944 
0.164794  2.821542 
0.165808  2.842235 
0.166821  2.863014 
0.167835  2.883871 
0.168848  2.904796 
0.169862  2.925783 
0.170875  2.946821 
0.171889  2.967902 
0.172902  2.989017 
0.173916  2.989567 
0.174929  2.953552 
0.175943  2.917091 
0.176956  2.880189 
0.177970  2.842854 
0.178983  2.805091 
0.179997  2.766906 
0.181010  2.728306 
0.182024  2.689297 
0.183037  2.649885 
0.184050  2.610077 
0.185064  2.569878 
0.186077  2.529294 
0.187091  2.488332 
0.188104  2.446999 
0.189118  2.405299 
0.190131  2.363240 
0.191145  2.320827 
0.192158  2.278067 
0.193172  2.234966 
0.194185  2.191529 
0.195199  2.147765 
0.196212  2.103678 
0.197226  2.059276 
0.198239  2.014563 
0.199253  1.969548 
0.200266  1.924236 
0.201280  1.878634 
0.202293  1.832749 
0.203307  1.786586 
0.204320  1.740153 
0.205334  1.693457 
0.206347  1.646503 
0.207360  1.599299 
0.208374  1.551852 
0.209387  1.504169 
0.210401  1.456255 
0.211414  1.408120 
0.212428  1.359769 
0.213441  1.311210 
0.214455  1.262449 
0.215468  1.213494 
0.216482  1.164353 
0.217495  1.115033 
0.218509  1.065540 
0.219522  1.015883 
0.220536  0.966069 
0.221549  0.916105 
0.222563  0.865999 
0.223576  0.815759 
0.224590  0.765392 
0.225603  0.714906 
0.226616  0.664308 
0.227630  0.613608 
0.228643  0.562811 
0.229657  0.511927 
0.230671  0.460963 
0.231684  0.409926 
0.232697  0.358826 
0.233711  0.307670 
0.234724  0.256465 
0.235738  0.205220 
0.236751  0.153943 
0.237765  0.102642 
0.238778  0.051325 
0.239792  0.000000 


0.000000  3.193809 
0.000878  3.193747 
0.001755  3.193561 
0.002633  3.193252 
0.003511  3.192818 
0.004389  3.192260 
0.005266  3.191578 
0.006144  3.190769 
0.007022  3.189835 
0.007899  3.188775 
0.008777  3.187586 
0.009655  3.186270 
0.010532  3.184824 
0.011410  3.183248 
0.012288  3.181541 
0.013166  3.179701 
0.014043  3.177728 
0.014921  3.175620 
0.015799  3.173375 
0.016676  3.170992 
0.017554  3.168470 
0.018432  3.165807 
0.019309  3.163002 
0.020187  3.160052 
0.021065  3.156957 
0.021943  3.153715 
0.022820  3.150323 
0.023698  3.146780 
0.024576  3.143085 
0.025453  3.139235 
0.026331  3.135229 
0.027209  3.131065 
0.028086  3.126740 
0.028964  3.122254 
0.029842  3.117604 
0.030720  3.112789 
0.031597  3.107806 
0.032475  3.102654 
0.033353  3.097332 
0.034230  3.091837 
0.035108  3.086167 
0.035986  3.080321 
0.036863  3.074298 
0.037741  3.068096 
0.038619  3.061712 
0.039496  3.055147 
0.040374  3.048397 
0.041252  3.041462 
0.042130  3.034340 
0.043007  3.027031 
0.043885  3.019532 
0.044763  3.011843 
0.045640  3.003962 
0.046518  2.995888 
0.047396  2.987621 
0.048273  2.979159 
0.049151  2.970502 
0.050029  2.961648 
0.050907  2.952598 
0.051784  2.943350 
0.052662  2.933903 
0.053540  2.924258 
0.054417  2.914414 
0.055295  2.904370 
0.056173  2.894126 
0.057050  2.883682 
0.057928  2.873038 
0.058806  2.862193 
0.059684  2.851148 
0.060561  2.839903 
0.061439  2.828457 
0.062317  2.816812 
0.063194  2.804967 
0.064072  2.792922 
0.064950  2.780679 
0.065827  2.768237 
0.066705  2.755597 
0.067583  2.742759 
0.068460  2.729724 
0.069338  2.716493 
0.070216  2.703067 
