# distance  frequency (bands are separated by blank lines)
# End points of segments: 
#   0.00000000 0.08359040 0.13185130 0.22837310 
0.000000  -0.000000 
0.000836  0.008478 
0.001672  0.016974 
0.002508  0.025506 
0.003344  0.034092 
0.004180  0.042750 
0.005015  0.051496 
0.005851  0.060349 
0.006687  0.069323 
0.007523  0.078434 
0.008359  0.087698 
0.009195  0.097128 
0.010031  0.106738 
0.010867  0.116540 
0.011703  0.126547 
0.012539  0.136770 
0.013374  0.147217 
0.014210  0.157899 
0.015046  0.168825 
0.015882  0.180001 
0.016718  0.191435 
0.017554  0.203132 
0.018390  0.215098 
0.019226  0.227337 
0.020062  0.239853 
0.020898  0.252649 
0.021733  0.265728 
0.022569  0.279091 
0.023405  0.292739 
0.024241  0.306674 
0.025077  0.320895 
0.025913  0.335402 
0.026749  0.350194 
0.027585  0.365269 
0.028421  0.380627 
0.029257  0.396266 
0.030093  0.412182 
0.030928  0.428373 
0.031764  0.444836 
0.032600  0.461569 
0.033436  0.478566 
0.034272  0.495826 
0.035108  0.513343 
0.035944  0.531114 
0.036780  0.549134 
0.037616  0.567399 
0.038452  0.585904 
0.039288  0.604644 
0.040123  0.623615 
0.040959  0.642812 
0.041795  0.662229 
0.042631  0.681862 
0.043467  0.701705 
0.044303  0.721753 
0.045139  0.742000 
0.045975  0.762442 
0.046811  0.783073 
0.047647  0.803887 
0.048482  0.824879 
0.049318  0.846043 
0.050154  0.867375 
0.050990  0.888868 
0.051826  0.910518 
0.052662  0.932318 
0.053498  0.954263 
0.054334  0.976348 
0.055170  0.998567 
0.056005  1.020916 
0.056841  1.043388 
0.057677  1.065978 
0.058513  1.088681 
0.059349  1.111492 
0.060185  1.134405 
0.061021  1.157415 
0.061857  1.180517 
0.062693  1.203707 
0.063529  1.226978 
0.064365  1.250325 
0.065200  1.273744 
0.066036  1.297231 
0.066872  1.320778 
0.067708  1.344383 
0.068544  1.368040 
0.069380  1.391745 
0.070216  1.415492 
0.071052  1.439277 
0.071888  1.463095 
0.072724  1.486942 
0.073559  1.510813 
0.074395  1.534705 
0.075231  1.558611 
0.076067  1.582528 
0.076903  1.606452 
0.077739  1.630378 
0.078575  1.654303 
0.079411  1.678221 
0.080247  1.702129 
0.081083  1.726022 
0.081919  1.749898 
0.082754  1.773750 
0.083590  1.797576 

0.083590  1.797576 
0.084073  1.797606 
0.084556  1.797696 
0.085038  1.797845 
0.085521  1.798054 
0.086003  1.798323 
0.086486  1.798652 
0.086969  1.799041 
0.087451  1.799490 
0.087934  1.799999 
0.088416  1.800568 
0.088899  1.801198 
0.089382  1.801887 
0.089864  1.802637 
0.090347  1.803448 
0.090829  1.804320 
0.091312  1.805252 
0.091795  1.806246 
0.092277  1.807300 
0.092760  1.808416 
0.093243  1.809594 
0.093725  1.810833 
0.094208  1.812134 
0.094690  1.813497 
0.095173  1.814922 
0.095656  1.816410 
0.096138  1.817960 
0.096621  1.819574 
0.097103  1.821250 
0.097586  1.822989 
0.098069  1.824792 
0.098551  1.826659 
0.099034  1.828589 
0.099516  1.830584 
0.099999  1.832643 
0.100482  1.834766 
0.100964  1.836955 
0.101447  1.839208 
0.101930  1.841526 
0.102412  1.843910 
0.102895  1.846359 
0.103377  1.848874 
0.103860  1.851456 
0.104343  1.854103 
0.104825  1.856817 
0.105308  1.859597 
0.105790  1.862444 
0.106273  1.865358 
0.106756  1.868339 
0.107238  1.871387 
0.107721  1.874502 
0.108203  1.877685 
0.108686  1.880936 
0.109169  1.884254 
0.109651  1.887640 
0.110134  1.891094 
0.110617  1.894616 
0.111099  1.898206 
0.111582  1.901865 
0.112064  1.905591 
0.112547  1.909386 
0.113030  1.913249 
0.113512  1.917180 
0.113995  1.921179 
0.114477  1.925247 
0.114960  1.929383 
0.115443  1.933587 
0.115925  1.937859 
0.116408  1.942200 
0.116890  1.946608 
0.117373  1.951084 
0.117856  1.955627 
0.118338  1.960239 
0.118821  1.964917 
0.119303  1.969663 
0.119786  1.974476 
0.120269  1.979356 
0.120751  1.984302 
0.121234  1.989315 
0.121717  1.994394 
0.122199  1.999538 
0.122682  2.004748 
0.123164  2.010024 
0.123647  2.015364 
0.124130  2.020769 
0.124612  2.026239 
0.125095  2.031772 
0.125577  2.037369 
0.126060  2.043029 
0.126543  2.048751 
0.127025  2.054536 
0.127508  2.060382 
0.127990  2.066290 
0.128473  2.072259 
0.128956  2.078288 
0.129438  2.084377 
0.129921  2.090526 
0.130404  2.096733 
0.130886  2.102998 
0.131369  2.109321 
0.131851  2.115701 

0.131851  2.115701 
0.132817  2.090017 
0.133782  2.064237 
0.134747  2.038364 
0.135712  2.012402 
0.136677  1.986356 
0.137643  1.960230 
0.138608  1.934029 
0.139573  1.907756 
0.140538  1.881417 
0.141504  1.855017 
0.142469  1.828559 
0.143434  1.802050 
0.144399  1.775492 
0.145364  1.748893 
0.146330  1.722256 
0.147295  1.695586 
0.148260  1.668890 
0.149225  1.642172 
0.150190  1.615438 
0.151156  1.588693 
0.152121  1.561944 
0.153086  1.535195 
0.154051  1.508452 
0.155017  1.481722 
0.155982  1.455011 
0.156947  1.428324 
0.157912  1.401668 
0.158877  1.375050 
0.159843  1.348476 
0.160808  1.321952 
0.161773  1.295485 
0.162738  1.269083 
0.163704  1.242752 
0.164669  1.216499 
0.165634  1.190331 
0.166599  1.164256 
0.167564  1.138282 
0.168530  1.112414 
0.169495  1.086662 
0.170460  1.061033 
0.171425  1.035535 
0.172391  1.010175 
0.173356  0.984962 
0.174321  0.959903 
0.175286  0.935008 
0.176251  0.910283 
0.177216  0.885738 
0.178182  0.861381 
0.179147  0.837219 
0.180112  0.813263 
0.181077  0.789519 
0.182043  0.765997 
0.183008  0.742705 
0.183973  0.719651 
0.184938  0.696844 
0.185903  0.674293 
0.186869  0.652005 
0.187834  0.629989 
0.188799  0.608254 
0.189764  0.586807 
0.190730  0.565656 
0.191695  0.544808 
0.192660  0.524273 
0.193625  0.504056 
0.194590  0.484164 
0.195556  0.464606 
0.196521  0.445386 
0.197486  0.426511 
0.198451  0.407987 
0.199417  0.389818 
0.200382  0.372009 
0.201347  0.354565 
0.202312  0.337488 
0.203277  0.320782 
0.204243  0.304448 
0.205208  0.288488 
0.206173  0.272901 
0.207138  0.257687 
0.208103  0.242844 
0.209069  0.228370 
0.210034  0.214260 
0.210999  0.200509 
0.211964  0.187111 
0.212930  0.174058 
0.213895  0.161341 
0.214860  0.148948 
0.215825  0.136868 
0.216790  0.125087 
0.217756  0.113589 
0.218721  0.102358 
0.219686  0.091375 
0.220651  0.080620 
0.221617  0.070073 
0.222582  0.059709 
0.223547  0.049507 
0.224512  0.039440 
0.225477  0.029483 
0.226443  0.019609 
0.227408  0.009790 
0.228373  -0.000000 


0.000000  -0.000000 
0.000836  0.023093 
0.001672  0.046184 
0.002508  0.069271 
0.003344  0.092352 
0.004180  0.115424 
0.005015  0.138486 
0.005851  0.161535 
0.006687  0.184569 
0.007523  0.207587 
0.008359  0.230586 
0.009195  0.253565 
0.010031  0.276521 
0.010867  0.299451 
0.011703  0.322356 
0.012539  0.345231 
0.013374  0.368077 
0.014210  0.390889 
0.015046  0.413668 
0.015882  0.436410 
0.016718  0.459115 
0.017554  0.481779 
0.018390  0.504403 
0.019226  0.526983 
0.020062  0.549519 
0.020898  0.572008 
0.021733  0.594449 
0.022569  0.616841 
0.023405  0.639181 
0.024241  0.661469 
0.025077  0.683703 
0.025913  0.705881 
0.026749  0.728003 
0.027585  0.750066 
0.028421  0.772070 
0.029257  0.794013 
0.030093  0.815894 
0.030928  0.837713 
0.031764  0.859466 
0.032600  0.881155 
0.033436  0.902776 
0.034272  0.924331 
0.035108  0.945816 
0.035944  0.967232 
0.036780  0.988578 
0.037616  1.009852 
0.038452  1.031054 
0.039288  1.052182 
0.040123  1.073237 
0.040959  1.094216 
0.041795  1.115120 
0.042631  1.135947 
0.043467  1.156697 
0.044303  1.177369 
0.045139  1.197963 
0.045975  1.218477 
0.046811  1.238911 
0.047647  1.259264 
0.048482  1.279536 
0.049318  1.299726 
0.050154  1.319833 
0.050990  1.339857 
0.051826  1.359796 
0.052662  1.379651 
0.053498  1.399420 
0.054334  1.419104 
0.055170  1.438701 
0.056005  1.458210 
0.056841  1.477631 
0.057677  1.496964 
0.058513  1.516207 
0.059349  1.535360 
0.060185  1.554423 
0.061021  1.573393 
0.061857  1.592272 
0.062693  1.611057 
0.063529  1.629748 
0.064365  1.648345 
0.065200  1.666846 
0.066036  1.685250 
0.066872  1.703557 
0.067708  1.721766 
0.068544  1.739876 
0.069380  1.757885 
0.070216  1.775794 
0.071052  1.793600 
0.071888  1.811303 
0.072724  1.828901 
0.073559  1.846394 
0.074395  1.863781 
0.075231  1.881060 
0.076067  1.898230 
0.076903  1.915290 
0.077739  1.932238 
0.078575  1.939761 
0.079411  1.916174 
0.080247  1.892539 
0.081083  1.868857 
0.081919  1.845134 
0.082754  1.821372 
0.083590  1.797576 

0.083590  1.797576 
0.084073  1.797606 
0.084556  1.797696 
0.085038  1.797845 
0.085521  1.798055 
0.086003  1.798324 
0.086486  1.798653 
0.086969  1.799041 
0.087451  1.799490 
0.087934  1.799999 
0.088416  1.800568 
0.088899  1.801198 
0.089382  1.801888 
0.089864  1.802638 
0.090347  1.803449 
0.090829  1.804320 
0.091312  1.805253 
0.091795  1.806246 
0.092277  1.807301 
0.092760  1.808417 
0.093243  1.809594 
0.093725  1.810834 
0.094208  1.812135 
0.094690  1.813498 
0.095173  1.814923 
0.095656  1.816411 
0.096138  1.817961 
0.096621  1.819574 
0.097103  1.821251 
0.097586  1.822990 
0.098069  1.824793 
0.098551  1.826660 
0.099034  1.828590 
0.099516  1.830585 
0.099999  1.832644 
0.100482  1.834767 
0.100964  1.836956 
0.101447  1.839209 
0.101930  1.841527 
0.102412  1.843911 
0.102895  1.846360 
0.103377  1.848876 
0.103860  1.851457 
0.104343  1.854104 
0.104825  1.856818 
0.105308  1.859598 
0.105790  1.862445 
0.106273  1.865359 
0.106756  1.868340 
0.107238  1.871388 
0.107721  1.874503 
0.108203  1.877686 
0.108686  1.880937 
0.109169  1.884255 
0.109651  1.887641 
0.110134  1.891096 
0.110617  1.894618 
0.111099  1.898208 
0.111582  1.901866 
0.112064  1.905593 
0.112547  1.909387 
0.113030  1.913250 
0.113512  1.917182 
0.113995  1.921181 
0.114477  1.925249 
0.114960  1.929385 
0.115443  1.933589 
0.115925  1.937861 
0.116408  1.942201 
0.116890  1.946610 
0.117373  1.951085 
0.117856  1.955629 
0.118338  1.960240 
0.118821  1.964919 
0.119303  1.969665 
0.119786  1.974478 
0.120269  1.979357 
0.120751  1.984304 
0.121234  1.989316 
0.121717  1.994395 
0.122199  1.999540 
0.122682  2.004750 
0.123164  2.010026 
0.123647  2.015366 
0.124130  2.020771 
0.124612  2.026241 
0.125095  2.031774 
0.125577  2.037371 
0.126060  2.043030 
0.126543  2.048753 
0.127025  2.054538 
0.127508  2.060384 
0.127990  2.066292 
0.128473  2.072261 
0.128956  2.078290 
0.129438  2.084379 
0.129921  2.090527 
0.130404  2.096734 
0.130886  2.103000 
0.131369  2.109323 
0.131851  2.115701 

0.131851  2.115701 
0.132817  2.128630 
0.133782  2.141781 
0.134747  2.155147 
0.135712  2.168724 
0.136677  2.182506 
0.137643  2.196487 
0.138608  2.210662 
0.139573  2.225024 
0.140538  2.239568 
0.141504  2.254287 
0.142469  2.269175 
0.143434  2.284225 
0.144399  2.266356 
0.145364  2.241952 
0.146330  2.217472 
0.147295  2.192918 
0.148260  2.168293 
0.149225  2.143597 
0.150190  2.118833 
0.151156  2.094003 
0.152121  2.069108 
0.153086  2.044149 
0.154051  2.019130 
0.155017  1.994050 
0.155982  1.968912 
0.156947  1.943718 
0.157912  1.918469 
0.158877  1.893166 
0.159843  1.867812 
0.160808  1.842407 
0.161773  1.816953 
0.162738  1.791451 
0.163704  1.765903 
0.164669  1.740310 
0.165634  1.714674 
0.166599  1.688996 
0.167564  1.663276 
0.168530  1.637518 
0.169495  1.611720 
0.170460  1.585886 
0.171425  1.560015 
0.172391  1.534110 
0.173356  1.508171 
0.174321  1.482199 
0.175286  1.456196 
0.176251  1.430162 
0.177216  1.404099 
0.178182  1.378007 
0.179147  1.351888 
0.180112  1.325743 
0.181077  1.299572 
0.182043  1.273376 
0.183008  1.247156 
0.183973  1.220913 
0.184938  1.194649 
0.185903  1.168363 
0.186869  1.142057 
0.187834  1.115731 
0.188799  1.089386 
0.189764  1.063022 
0.190730  1.036642 
0.191695  1.010244 
0.192660  0.983831 
0.193625  0.957402 
0.194590  0.930958 
0.195556  0.904500 
0.196521  0.878029 
0.197486  0.851544 
0.198451  0.825048 
0.199417  0.798539 
0.200382  0.772019 
0.201347  0.745488 
0.202312  0.718947 
0.203277  0.692396 
0.204243  0.665836 
0.205208  0.639267 
0.206173  0.612690 
0.207138  0.586105 
0.208103  0.559512 
0.209069  0.532912 
0.210034  0.506306 
0.210999  0.479693 
0.211964  0.453074 
0.212930  0.426450 
0.213895  0.399821 
0.214860  0.373187 
0.215825  0.346549 
0.216790  0.319907 
0.217756  0.293261 
0.218721  0.266611 
0.219686  0.239959 
0.220651  0.213303 
0.221617  0.186646 
0.222582  0.159986 
0.223547  0.133324 
0.224512  0.106661 
0.225477  0.079997 
0.226443  0.053332 
0.227408  0.026666 
0.228373  0.000000 


0.000000  0.000000 
0.000836  0.037110 
0.001672  0.074217 
0.002508  0.111320 
0.003344  0.148415 
0.004180  0.185501 
0.005015  0.222576 
0.005851  0.259636 
0.006687  0.296679 
0.007523  0.333704 
0.008359  0.370707 
0.009195  0.407687 
0.010031  0.444641 
0.010867  0.481566 
0.011703  0.518461 
0.012539  0.555323 
0.013374  0.592150 
0.014210  0.628939 
0.015046  0.665688 
0.015882  0.702395 
0.016718  0.739057 
0.017554  0.775673 
0.018390  0.812239 
0.019226  0.848754 
0.020062  0.885216 
0.020898  0.921621 
0.021733  0.957969 
0.022569  0.994255 
0.023405  1.030479 
0.024241  1.066639 
0.025077  1.102731 
0.025913  1.138753 
0.026749  1.174705 
0.027585  1.210582 
0.028421  1.246384 
0.029257  1.282107 
0.030093  1.317750 
0.030928  1.353311 
0.031764  1.388787 
0.032600  1.424177 
0.033436  1.459477 
0.034272  1.494687 
0.035108  1.529803 
0.035944  1.564825 
0.036780  1.599749 
0.037616  1.634574 
0.038452  1.669298 
0.039288  1.703918 
0.040123  1.738432 
0.040959  1.772839 
0.041795  1.807137 
0.042631  1.841323 
0.043467  1.875395 
0.044303  1.909351 
0.045139  1.943190 
0.045975  1.976910 
0.046811  2.010507 
0.047647  2.043981 
0.048482  2.077330 
0.049318  2.110551 
0.050154  2.143642 
0.050990  2.176602 
0.051826  2.209428 
0.052662  2.242119 
0.053498  2.274673 
0.054334  2.307087 
0.055170  2.339360 
0.056005  2.371490 
0.056841  2.403474 
0.057677  2.435312 
0.058513  2.467000 
0.059349  2.456465 
0.060185  2.438879 
0.061021  2.417282 
0.061857  2.395558 
0.062693  2.373711 
0.063529  2.351743 
0.064365  2.329659 
0.065200  2.307463 
0.066036  2.285156 
0.066872  2.262743 
0.067708  2.240228 
0.068544  2.217613 
0.069380  2.194902 
0.070216  2.172099 
0.071052  2.149208 
0.071888  2.126230 
0.072724  2.103171 
0.073559  2.080034 
0.074395  2.056821 
0.075231  2.033537 
0.076067  2.010186 
0.076903  1.986770 
0.077739  1.963294 
0.078575  1.949074 
0.079411  1.965796 
0.080247  1.982403 
0.081083  1.998894 
0.081919  2.015266 
0.082754  2.031519 
0.083590  2.047652 

0.083590  2.047652 
0.084073  2.047737 
0.084556  2.047991 
0.085038  2.048414 
0.085521  2.049006 
0.086003  2.049766 
0.086486  2.050695 
0.086969  2.051791 
0.087451  2.053054 
0.087934  2.054483 
0.088416  2.056077 
0.088899  2.057836 
0.089382  2.059758 
0.089864  2.061842 
0.090347  2.064087 
0.090829  2.066491 
0.091312  2.069054 
0.091795  2.071773 
0.092277  2.074647 
0.092760  2.077674 
0.093243  2.080853 
0.093725  2.084182 
0.094208  2.087658 
0.094690  2.091281 
0.095173  2.095046 
0.095656  2.098954 
0.096138  2.103000 
0.096621  2.107184 
0.097103  2.111502 
0.097586  2.115952 
0.098069  2.120532 
0.098551  2.125238 
0.099034  2.130069 
0.099516  2.135022 
0.099999  2.140094 
0.100482  2.145281 
0.100964  2.150582 
0.101447  2.155994 
0.101930  2.161512 
0.102412  2.167135 
0.102895  2.172859 
0.103377  2.178682 
0.103860  2.184599 
0.104343  2.190608 
0.104825  2.196706 
0.105308  2.202889 
0.105790  2.209155 
0.106273  2.215499 
0.106756  2.221919 
0.107238  2.228410 
0.107721  2.234971 
0.108203  2.241596 
0.108686  2.248284 
0.109169  2.255030 
0.109651  2.261831 
0.110134  2.268683 
0.110617  2.275584 
0.111099  2.282528 
0.111582  2.289514 
0.112064  2.296537 
0.112547  2.303594 
0.113030  2.310681 
0.113512  2.317795 
0.113995  2.324933 
0.114477  2.332090 
0.114960  2.339264 
0.115443  2.346451 
0.115925  2.353646 
0.116408  2.360848 
0.116890  2.368052 
0.117373  2.375256 
0.117856  2.382454 
0.118338  2.389646 
0.118821  2.396826 
0.119303  2.403992 
0.119786  2.411140 
0.120269  2.414903 
0.120751  2.402814 
0.121234  2.390689 
0.121717  2.378528 
0.122199  2.366331 
0.122682  2.354100 
0.123164  2.341834 
0.123647  2.329535 
0.124130  2.317201 
0.124612  2.304835 
0.125095  2.292436 
0.125577  2.280005 
0.126060  2.267543 
0.126543  2.255049 
0.127025  2.242525 
0.127508  2.229970 
0.127990  2.217386 
0.128473  2.204772 
0.128956  2.192130 
0.129438  2.179460 
0.129921  2.166762 
0.130404  2.154036 
0.130886  2.141284 
0.131369  2.128505 
0.131851  2.115703 

0.131851  2.115703 
0.132817  2.128632 
0.133782  2.141782 
0.134747  2.155148 
0.135712  2.168725 
0.136677  2.182507 
0.137643  2.196488 
0.138608  2.210663 
0.139573  2.225026 
0.140538  2.239570 
0.141504  2.254289 
0.142469  2.269176 
0.143434  2.284226 
0.144399  2.299430 
0.145364  2.314784 
0.146330  2.330280 
0.147295  2.345910 
0.148260  2.361668 
0.149225  2.377547 
0.150190  2.393540 
0.151156  2.409639 
0.152121  2.425836 
0.153086  2.442126 
0.154051  2.458500 
0.155017  2.474951 
0.155982  2.491471 
0.156947  2.508054 
0.157912  2.524691 
0.158877  2.541376 
0.159843  2.558100 
0.160808  2.574857 
0.161773  2.591638 
0.162738  2.608437 
0.163704  2.620990 
0.164669  2.588641 
0.165634  2.556008 
0.166599  2.523096 
0.167564  2.489907 
0.168530  2.456445 
0.169495  2.422713 
0.170460  2.388715 
0.171425  2.354452 
0.172391  2.319930 
0.173356  2.285150 
0.174321  2.250117 
0.175286  2.214833 
0.176251  2.179301 
0.177216  2.143526 
0.178182  2.107510 
0.179147  2.071257 
0.180112  2.034770 
0.181077  1.998052 
0.182043  1.961107 
0.183008  1.923938 
0.183973  1.886550 
0.184938  1.848944 
0.185903  1.811126 
0.186869  1.773098 
0.187834  1.734864 
0.188799  1.696428 
0.189764  1.657794 
0.190730  1.618966 
0.191695  1.579947 
0.192660  1.540742 
0.193625  1.501354 
0.194590  1.461787 
0.195556  1.422046 
0.196521  1.382135 
0.197486  1.342057 
0.198451  1.301818 
0.199417  1.261421 
0.200382  1.220872 
0.201347  1.180174 
0.202312  1.139331 
0.203277  1.098349 
0.204243  1.057233 
0.205208  1.015986 
0.206173  0.974614 
0.207138  0.933121 
0.208103  0.891512 
0.209069  0.849792 
0.210034  0.807966 
0.210999  0.766039 
0.211964  0.724016 
0.212930  0.681903 
0.213895  0.639703 
0.214860  0.597423 
0.215825  0.555067 
0.216790  0.512642 
0.217756  0.470151 
0.218721  0.427600 
0.219686  0.384996 
0.220651  0.342342 
0.221617  0.299645 
0.222582  0.256910 
0.223547  0.214141 
0.224512  0.171346 
0.225477  0.128529 
0.226443  0.085695 
0.227408  0.042850 
0.228373  0.000000 


0.000000  2.873061 
0.000836  2.872982 
0.001672  2.872747 
0.002508  2.872354 
0.003344  2.871804 
0.004180  2.871097 
0.005015  2.870232 
0.005851  2.869210 
0.006687  2.868029 
0.007523  2.866691 
0.008359  2.865194 
0.009195  2.863538 
0.010031  2.861723 
0.010867  2.859748 
0.011703  2.857613 
0.012539  2.855317 
0.013374  2.852861 
0.014210  2.850243 
0.015046  2.847463 
0.015882  2.844520 
0.016718  2.841415 
0.017554  2.838145 
0.018390  2.834711 
0.019226  2.831113 
0.020062  2.827348 
0.020898  2.823418 
0.021733  2.819321 
0.022569  2.815057 
0.023405  2.810625 
0.024241  2.806024 
0.025077  2.801254 
0.025913  2.796315 
0.026749  2.791205 
0.027585  2.785924 
0.028421  2.780472 
0.029257  2.774848 
0.030093  2.769052 
0.030928  2.763083 
0.031764  2.756941 
0.032600  2.750625 
0.033436  2.744135 
0.034272  2.737470 
0.035108  2.730631 
0.035944  2.723617 
0.036780  2.716427 
0.037616  2.709062 
0.038452  2.701522 
0.039288  2.693806 
0.040123  2.685914 
0.040959  2.677846 
0.041795  2.669603 
0.042631  2.661184 
0.043467  2.652589 
0.044303  2.643819 
0.045139  2.634874 
0.045975  2.625754 
0.046811  2.616459 
0.047647  2.606990 
0.048482  2.597347 
0.049318  2.587531 
0.050154  2.577543 
0.050990  2.567382 
0.051826  2.557049 
0.052662  2.546546 
0.053498  2.535873 
0.054334  2.525030 
0.055170  2.514018 
0.056005  2.502839 
0.056841  2.491493 
0.057677  2.479982 
0.058513  2.468305 
0.059349  2.460345 
0.060185  2.444462 
0.061021  2.432298 
0.061857  2.419973 
0.062693  2.407489 
0.063529  2.394847 
0.064365  2.382048 
0.065200  2.369094 
0.066036  2.355986 
0.066872  2.342725 
0.067708  2.329313 
0.068544  2.315751 
